
Data Source

[3] Londono, D., Kuhs, W. F. & Finney, J. L. Neutron diffraction studies of ices III and IX on under-pressure and recovered samples. J. Chem. Phys. 98, 4878â€“4888 (1993).

@BOX3
13.340003167153998 13.340003167153998 20.91000496440705
@AR3A
144
   5.9697    0.7004    5.2275
   0.7004    5.9697    1.7425
   4.0354    4.0354    3.4850
   2.6347    2.6347    0.0000
   1.9877    0.7204    4.9487
   4.6823    5.9496    1.4637
   2.6146    5.3227    6.6912
   4.0554    1.3473    3.2062
   5.3227    2.6146    0.2788
   1.3473    4.0554    3.7638
   5.9496    4.6823    5.5063
   0.7204    1.9877    2.0213
  12.6397    0.7004    5.2275
   7.3704    5.9697    1.7425
  10.7054    4.0354    3.4850
   9.3047    2.6347    0.0000
   8.6577    0.7204    4.9487
  11.3523    5.9496    1.4637
   9.2846    5.3227    6.6912
  10.7254    1.3473    3.2062
  11.9927    2.6146    0.2788
   8.0173    4.0554    3.7638
  12.6196    4.6823    5.5063
   7.3904    1.9877    2.0213
   5.9697    7.3704    5.2275
   0.7004   12.6397    1.7425
   4.0354   10.7054    3.4850
   2.6347    9.3047    0.0000
   1.9877    7.3904    4.9487
   4.6823   12.6196    1.4637
   2.6146   11.9927    6.6912
   4.0554    8.0173    3.2062
   5.3227    9.2846    0.2788
   1.3473   10.7254    3.7638
   5.9496   11.3523    5.5063
   0.7204    8.6577    2.0213
  12.6397    7.3704    5.2275
   7.3704   12.6397    1.7425
  10.7054   10.7054    3.4850
   9.3047    9.3047    0.0000
   8.6577    7.3904    4.9487
  11.3523   12.6196    1.4637
   9.2846   11.9927    6.6912
  10.7254    8.0173    3.2062
  11.9927    9.2846    0.2788
   8.0173   10.7254    3.7638
  12.6196   11.3523    5.5063
   7.3904    8.6577    2.0213
   5.9697    0.7004   12.1975
   0.7004    5.9697    8.7125
   4.0354    4.0354   10.4550
   2.6347    2.6347    6.9700
   1.9877    0.7204   11.9187
   4.6823    5.9496    8.4337
   2.6146    5.3227   13.6612
   4.0554    1.3473   10.1762
   5.3227    2.6146    7.2488
   1.3473    4.0554   10.7338
   5.9496    4.6823   12.4763
   0.7204    1.9877    8.9913
  12.6397    0.7004   12.1975
   7.3704    5.9697    8.7125
  10.7054    4.0354   10.4550
   9.3047    2.6347    6.9700
   8.6577    0.7204   11.9187
  11.3523    5.9496    8.4337
   9.2846    5.3227   13.6612
  10.7254    1.3473   10.1762
  11.9927    2.6146    7.2488
   8.0173    4.0554   10.7338
  12.6196    4.6823   12.4763
   7.3904    1.9877    8.9913
   5.9697    7.3704   12.1975
   0.7004   12.6397    8.7125
   4.0354   10.7054   10.4550
   2.6347    9.3047    6.9700
   1.9877    7.3904   11.9187
   4.6823   12.6196    8.4337
   2.6146   11.9927   13.6612
   4.0554    8.0173   10.1762
   5.3227    9.2846    7.2488
   1.3473   10.7254   10.7338
   5.9496   11.3523   12.4763
   0.7204    8.6577    8.9913
  12.6397    7.3704   12.1975
   7.3704   12.6397    8.7125
  10.7054   10.7054   10.4550
   9.3047    9.3047    6.9700
   8.6577    7.3904   11.9187
  11.3523   12.6196    8.4337
   9.2846   11.9927   13.6612
  10.7254    8.0173   10.1762
  11.9927    9.2846    7.2488
   8.0173   10.7254   10.7338
  12.6196   11.3523   12.4763
   7.3904    8.6577    8.9913
   5.9697    0.7004   19.1675
   0.7004    5.9697   15.6825
   4.0354    4.0354   17.4250
   2.6347    2.6347   13.9400
   1.9877    0.7204   18.8887
   4.6823    5.9496   15.4037
   2.6146    5.3227   20.6312
   4.0554    1.3473   17.1462
   5.3227    2.6146   14.2188
   1.3473    4.0554   17.7038
   5.9496    4.6823   19.4463
   0.7204    1.9877   15.9613
  12.6397    0.7004   19.1675
   7.3704    5.9697   15.6825
  10.7054    4.0354   17.4250
   9.3047    2.6347   13.9400
   8.6577    0.7204   18.8887
  11.3523    5.9496   15.4037
   9.2846    5.3227   20.6312
  10.7254    1.3473   17.1462
  11.9927    2.6146   14.2188
   8.0173    4.0554   17.7038
  12.6196    4.6823   19.4463
   7.3904    1.9877   15.9613
   5.9697    7.3704   19.1675
   0.7004   12.6397   15.6825
   4.0354   10.7054   17.4250
   2.6347    9.3047   13.9400
   1.9877    7.3904   18.8887
   4.6823   12.6196   15.4037
   2.6146   11.9927   20.6312
   4.0554    8.0173   17.1462
   5.3227    9.2846   14.2188
   1.3473   10.7254   17.7038
   5.9496   11.3523   19.4463
   0.7204    8.6577   15.9613
  12.6397    7.3704   19.1675
   7.3704   12.6397   15.6825
  10.7054   10.7054   17.4250
   9.3047    9.3047   13.9400
   8.6577    7.3904   18.8887
  11.3523   12.6196   15.4037
   9.2846   11.9927   20.6312
  10.7254    8.0173   17.1462
  11.9927    9.2846   14.2188
   8.0173   10.7254   17.7038
  12.6196   11.3523   19.4463
   7.3904    8.6577   15.9613
